frequency,raw
20.000000000000004,-8.670558611049744
20.067605508258467,-8.670568043129435
20.135439541754284,-8.670573184262501
20.20350287296568,-8.670574034721392
20.271796276982094,-8.670570594611151
20.34032053151297,-8.670562863867946
20.40907641689662,-8.670550842260065
20.478064716109134,-8.670534529387472
20.54728621477325,-8.67051392468242
20.616741701167346,-8.670489027408776
20.6864319662344,-8.670459836662173
20.756357803590973,-8.67042635137072
20.82652000953629,-8.670388570293335
20.896919383061288,-8.670346492021912
20.967556725857687,-8.670300114979694
21.038432842327182,-8.67024943742098
21.10954853959054,-8.67019445743397
21.18090462749683,-8.670135172936904
21.25250191863264,-8.670071581680116
21.324341228331296,-8.670003681244536
21.39642337468222,-8.669931469045808
21.46874917854015,-8.669854942329652
21.541319463534588,-8.669774098171368
21.61413505607911,-8.669688933482606
21.687196785380777,-8.669599445001603
21.760505483449627,-8.669505629300467
21.83406198510812,-8.669407482782882
21.907867128000625,-8.669305001683584
21.981921752602993,-8.669198182069827
22.05622670223213,-8.669087019837614
22.130782823055547,-8.668971510714698
22.205590964101077,-8.668851650262832
22.280651977266455,-8.668727433873068
22.35596671732911,-8.66859885676613
22.431536041955837,-8.668465913995275
22.50736081171256,-8.668328600444402
22.5834418900742,-8.66818691082735
22.659780143434396,-8.668040839690946
22.736376441115492,-8.667890381409558
22.813231655378377,-8.667735530191647
22.89034666143237,-8.667576280070842
22.9677223374453,-8.667412624918992
23.045359564553426,-8.66724455842872
23.123259226871458,-8.667072074133488
23.201422211502702,-8.666895165387388
23.279849408549108,-8.666713825378183
23.35854171112138,-8.666528047125826
23.437500015349237,-8.666337823476121
23.51672522039151,-8.666143147104815
23.59621822844647,-8.665944010522333
23.67597994476207,-8.665740406062254
23.756011277646213,-8.665532325888938
23.83631313847718,-8.66531976200131
23.916886441713913,-8.665102706218397
23.997732104906515,-8.664881150194583
24.07885104870666,-8.66465508541259
24.160244196878043,-8.664424503181285
24.24191247630697,-8.664189394641252
24.32385681701288,-8.663949750753398
24.406078152158894,-8.66370556231709
24.48857741806252,-8.663456819956439
24.57135555420627,-8.663203514125714
24.654413503248353,-8.662945635095875
24.73775221103344,-8.662683172984883
24.82137262660338,-8.662416117715056
24.905275702208097,-8.66214445905502
24.98946239331635,-8.661868186594583
25.07393365862665,-8.66158728974621
25.158690460078187,-8.66130175775608
25.243733762861737,-8.661011579692405
25.32906453543071,-8.660716744454346
25.41468374951219,-8.660417240765486
25.500592380117883,-8.6601130571672
25.586791405555378,-8.659804182044892
25.67328180743918,-8.659490603591987
25.76006457070192,-8.659172309841756
25.847140683605573,-8.658849288645966
25.934511137752747,-8.658521527679953
26.02217692809787,-8.658189014447503
26.110139052958676,-8.657851736278241
26.1983985140274,-8.65750968032324
26.28695631638233,-8.65716283356981
26.375813468499196,-8.65681118281006
26.464970982262617,-8.656454714673862
26.554429872977696,-8.656093415616471
26.644191159381517,-8.65572727191285
26.7342558636548,-8.655356269657409
26.82462501143352,-8.654980394775071
26.915299631820556,-8.654599633015293
27.006280757397462,-8.654213969946627
27.097569424236205,-8.653823390958985
27.189166671910932,-8.653427881268957
27.281073543509866,-8.653027425915592
27.373291085647153,-8.65262200975904
27.465820348474757,-8.652211617482513
27.55866238569449,-8.651796233596128
27.6518182545699,-8.651375842419867
27.745289015938447,-8.650950428103803
27.839075734223485,-8.650519974621519
27.933179477446387,-8.650084465763324
28.027601317238783,-8.649643885144291
28.12234232885466,-8.649198216191825
28.2174035911827,-8.648747442170245
28.31278618675852,-8.648291546148828
28.40849120177697,-8.647830511022047
28.504519726104583,-8.647364319508922
28.600872853291932,-8.646892954145603
28.69755168058606,-8.646416397283085
28.79455730894304,-8.645934631102127
28.89189084304048,-8.645447637593916
28.989553391290073,-8.64495539857201
29.08754606585029,-8.64445789567277
29.185869982638955,-8.643955110342903
29.28452626134604,-8.64344702385475
29.38351602544639,-8.642933617300192
29.48284040221244,-8.642414871582636
29.58250052272719,-8.641890767425744
29.682497521896956,-8.641361285372772
29.78283253846438,-8.640826405785015
29.883506715021376,-8.640286108842782
29.984521198022087,-8.63974037453344
30.085877137796036,-8.639189182678221
30.18757568856117,-8.638632512904604
30.289618008436975,-8.638070344650648
30.39200525945773,-8.637502657187772
30.494738607585724,-8.636929429588951
30.597819222724464,-8.636350640754287
30.701248278732127,-8.63576626938354
30.805026953434773,-8.635176294019393
30.909156428639907,-8.634580692993465
31.01363789014985,-8.633979444466352
31.11847252777523,-8.633372526409532
31.223661535348608,-8.632759916609052
31.329206110737985,-8.632141592674849
31.43510745586052,-8.631517532017565
31.541366776696176,-8.630887711878598
31.64798528330143,-8.63025210929376
31.754964189823134,-8.629610701133082
31.862304714512263,-8.628963464068637
31.9700080797378,-8.628310374589967
32.078075512000694,-8.627651408998554
32.18650824194782,-8.62698654341638
32.295307504385924,-8.626315753767058
32.404474538295815,-8.625639015804405
32.51401058684631,-8.624956305073953
32.623916897408556,-8.624267596953493
32.734194721570134,-8.623572866623924
32.84484531514929,-8.622872089084554
32.955869938209375,-8.622165239144394
33.067269855073,-8.621452291417947
33.179046334336604,-8.620733220347754
33.29120064888482,-8.620008000180425
33.403734075904936,-8.619276604966943
33.51664789690154,-8.618539008584712
33.62994339771106,-8.617795184716245
33.74362186851634,-8.61704510685526
33.857684603861465,-8.61628874831364
33.972132902666424,-8.615526082208264
34.086968068241866,-8.614757081463951
34.20219140830406,-8.613981718833314
34.317804234989644,-8.613199966865068
34.433807864870694,-8.612411797923547
34.550203618969654,-8.611617184191426
34.66699282277435,-8.610816097654697
34.78417680625318,-8.610008510112072
34.90175690387013,-8.609194393177338
35.019734454600105,-8.608373718273008
35.1381108019441,-8.607546456632866
35.25688729394449,-8.606712579304691
35.37606528320041,-8.605872057143419
35.4956461268832,-8.605024860812252
35.61563118675173,-8.604170960799104
35.736021829168045,-8.603310327389506
35.85681942511289,-8.602442930689863
35.97802535020122,-8.601568740607725
36.099640984698055,-8.600687726866964
36.22166771353398,-8.59979985900628
36.34410692632112,-8.598905106373879
36.466960017368834,-8.598003438129785
36.5902283856996,-8.59709482323962
36.713913435065045,-8.596179230480628
36.83801657396178,-8.59525662845904
36.9625392156476,-8.594326985572442
37.087482778157465,-8.59339027003149
37.2128486843197,-8.59244644987538
37.33863836177216,-8.591495492941403
37.46485324297849,-8.590537366875374
37.59149476524451,-8.589572039153236
37.7185643707345,-8.588599477043415
37.846063506487674,-8.587619647638325
37.973993624434584,-8.58663251784388
38.10235618141378,-8.58563805436559
38.23115263918826,-8.584636223743212
38.36038446446222,-8.583626992312153
38.49005312889774,-8.582610326223515
38.62016010913146,-8.581586191454045
38.750706886791534,-8.580554553780406
38.88169494851435,-8.579515378791784
39.0131257859616,-8.578468631909185
39.14500089583717,-8.577414278353498
39.27732177990424,-8.576352283162572
39.41008994500234,-8.57528261118763
39.543306903064526,-8.574205227112303
39.67697417113463,-8.573120095400585
39.81109327138451,-8.57202718037037
39.945665731131385,-8.570926446128334
40.08069308285518,-8.569817856614323
40.21617686421609,-8.568701375569376
40.35211861807197,-8.56757696657786
40.488519892496,-8.566444593004752
40.62538224079428,-8.565304218063558
40.76270722152344,-8.56415580478325
40.900496398508565,-8.562999315988264
41.0387513408608,-8.56183471434745
41.17747362299538,-8.560661962336185
41.316664824649486,-8.559481022253395
41.45632653090026,-8.55829185621746
41.5964603321828,-8.55709442617398
41.73706782430831,-8.555888693876748
41.87815060848233,-8.554674620915465
42.01971029132288,-8.55345216869586
42.161748484878814,-8.55222129844494
42.3042668066481,-8.550981971216038
42.447266879596384,-8.549734147881074
42.59075033217527,-8.548477789153937
42.73471879834107,-8.547212855554667
42.87917391757332,-8.545939307430109
43.02411733489335,-8.54465710497034
43.169550700883235,-8.543366208169672
43.31547567170437,-8.542066576879112
43.461893909116505,-8.540758170747965
43.60880708049657,-8.539440949276646
43.756216858857705,-8.538114871781485
43.90412492286826,-8.5367798974247
44.05253295687094,-8.535435985176637
44.201442650902045,-8.534083093870004
44.350855700710625,-8.532721182148288
44.50077380777786,-8.53135020849169
44.65119867933635,-8.529970131222045
44.802132028389686,-8.528580908498352
44.95357557373179,-8.52718249830201
45.10553103996666,-8.525774858467404
45.25800015752792,-8.524357946664436
45.410984662698496,-8.522931720385522
45.56448629763047,-8.521496136993798
45.71850681036483,-8.520051153661848
45.873047954851465,-8.518596727425754
46.028111490969096,-8.51713281515123
46.18369918454533,-8.5156593735592
46.33981280737672,-8.514176359208628
46.49645413724895,-8.51268372851326
46.653624957957206,-8.51118143771348
46.81132705932633,-8.5096694429283
46.9695622372313,-8.508147700104809
47.12833229361758,-8.506616165044612
47.28763903652179,-8.505074793410973
47.44748428009214,-8.50352354070039
47.6078698446092,-8.501962362286038
47.768797556506605,-8.500391213384992
47.93026924839177,-8.498810049076825
48.09228675906692,-8.497218824288842
48.25485193354984,-8.495617493812235
48.41796662309507,-8.49400601231728
48.58163268521486,-8.492384334315188
48.74585198370038,-8.490752414181378
48.9106263886429,-8.48911020616959
49.075957776455105,-8.487457664388387
49.24184802989251,-8.485794742820234
49.408299038074865,-8.484121395323205
49.57531269650765,-8.482437575608152
49.74289090710363,-8.480743237285427
49.91103557820467,-8.479038333811866
50.079748624603205,-8.47732281854601
50.24903196756433,-8.47559664469461
50.41888753484751,-8.473859765370241
50.589317260728485,-8.472112133565853
50.76032308602153,-8.470353702131698
50.93190695810125,-8.46858442383496
51.10407083092501,-8.466804251303468
51.276816665055065,-8.46501313706578
51.45014642768095,-8.463211033538704
51.624062092641765,-8.461397893029838
51.79856564044874,-8.459573667739201
51.973659058307845,-8.457738309767953
52.14934434014229,-8.455891771109561
52.32562348661537,-8.454034003661215
52.502498505153056,-8.452164959218289
52.67997140996709,-8.450284589480658
52.858044222077694,-8.448392846055574
53.0367189693368,-8.446489680459072
53.21599768645099,-8.444575044116236
53.39588241500468,-8.442648888361452
53.57637520348349,-8.440711164445473
53.757478107297366,-8.4387618235469
53.939193188804225,-8.436800816743338
54.121522517333254,-8.434828095048951
54.30446816920859,-8.432843609390696
54.48803222777287,-8.430847310636747
54.672216783410974,-8.428839149567905
54.85702393357395,-8.426819076906094
55.04245578280275,-8.424787043308317
55.2285144427523,-8.422742999351595
55.41520203221541,-8.420686895573388
55.602520677147105,-8.418618682435325
55.790472510688616,-8.416538310351855
55.97905967319187,-8.414445729681654
56.16828431224375,-8.412340890731569
56.358148582690504,-8.410223743761442
56.54865464666248,-8.408094238987632
56.73980467359848,-8.405952326577763
56.931600840270704,-8.403797956665366
57.12404533080943,-8.401631079347831
57.31714033672791,-8.399451644682616
57.510888056947245,-8.397259602696982
57.705290697821525,-8.39505490339671
57.90035047316296,-8.392837496761626
58.09606960426703,-8.39060733273706
58.292450319937835,-8.388364361267207
58.48949485651337,-8.38610853227048
58.687205457891174,-8.3838397956506
58.885584375553655,-8.38155810130757
59.084633868593954,-8.379263399140582
59.28435620374156,-8.376955639023679
59.48475365538805,-8.374634770860027
59.68582850561318,-8.372300744538478
59.88758304421066,-8.369953509952184
60.0900195687144,-8.367593017025685
60.2931403844246,-8.365219215674442
60.49694780443403,-8.362832055838647
60.701444149654286,-8.360431487492837
60.906631748842294,-8.358017460614908
61.11251293862688,-8.355589925227724
61.31909006353527,-8.353148831379732
61.52636547601989,-8.350694129150945
61.73434153648501,-8.348225768670835
61.94302061331383,-8.345743700103396
62.15240508289521,-8.343247873665495
62.36249732965096,-8.340738239620455
62.5732997460629,-8.33821474828906
62.78481473269999,-8.335677350050336
62.99704469824591,-8.333125995337982
63.209992059526215,-8.330560634672063
63.4236592415361,-8.32798121863297
63.638048677467886,-8.325387697862135
63.85316280873877,-8.322780023100577
64.06900408501856,-8.320158145173655
64.28557496425763,-8.317522014966842
64.50287791271495,-8.314871583487397
64.72091540498609,-8.312206801824422
64.93968992403147,-8.30952762117788
65.15920396120454,-8.306833992829668
65.37946001628028,-8.304125868206908
65.6004605974835,-8.301403198805138
65.82220822151761,-8.298665936286387
66.04470541359316,-8.295914032393545
66.26795470745648,-8.293147439030298
66.49195864541885,-8.29036610821011
66.71671977838506,-8.287569992086274
66.94224066588282,-8.284759042964696
67.1685238760917,-8.281933213291078
67.39557198587242,-8.279092455653792
67.6233875807962,-8.27623672281439
67.85197325517414,-8.273365967676225
68.08133161208693,-8.270480143323711
68.31146526341435,-8.267579203003487
68.54237682986505,-8.264663100141886
68.77406894100636,-8.26173178833645
69.00654423529437,-8.258785221386779
69.23980536010373,-8.255823353271998
69.47385497175809,-8.252846138159162
69.70869573556014,-8.249853530441866
69.94433032582201,-8.246845484695575
70.1807614258958,-8.243821955721211
70.41799172820397,-8.240782898525703
70.65602393427025,-8.237728268351509
70.89486075475018,-8.234658020654832
71.13450490946212,-8.231572111136153
71.37495912741808,-8.228470495733111
71.61622614685488,-8.225353130620514
71.85830871526545,-8.222219972233056
72.1012095894299,-8.219070977242895
72.34493153544712,-8.215906102605077
72.589477328766,-8.212725305526144
72.83484975421742,-8.209528543494153
73.08105160604555,-8.20631577426324
73.32808568794003,-8.203086955881345
73.57595481306774,-8.199842046684223
73.82466180410471,-8.196581005305664
74.07420949326853,-8.193303790668233
74.32460072235035,-8.190010362014048
74.57583834274745,-8.186700678893107
74.82792521549557,-8.183374701176097
75.0808642113016,-8.180032389057844
75.33465821057614,-8.176673703068074
75.58931010346632,-8.173298604063461
75.8448227898889,-8.1699070532551
76.10119917956307,-8.166499012195542
76.35844219204375,-8.163074442800212
76.61655475675464,-8.159633307336852
76.87553981302183,-8.15617556845412
77.13540031010699,-8.15270118916183
77.39613920724122,-8.149210132855309
77.65775947365869,-8.145702363317957
77.9202640886302,-8.142177844729689
78.18365604149751,-8.138636541669397
78.44793833170704,-8.1350784191072
78.71311396884423,-8.131503442447725
78.97918597266774,-8.127911577498109
79.24615737314387,-8.124302790501186
79.514031210481,-8.120677048125708
79.78281053516419,-8.117034317483709
80.05249840799011,-8.113374566125733
80.32309790010171,-8.109697762062014
80.5946120930233,-8.106003873751588
80.86704407869543,-8.10229287012904
81.14039695951045,-8.09856472059325
81.41467384834752,-8.094819395031289
81.68987786860825,-8.091056863790273
81.96601215425225,-8.087277097746538
82.24307984983264,-8.083480068241686
82.52108411053214,-8.079665747140313
82.80002810219875,-8.07583410681381
83.07991500138196,-8.071985120152487
83.36074799536888,-8.068118760581804
83.64253028222056,-8.064235002036222
83.92526507080828,-8.0603338190174
84.2089555808502,-8.056415186559535
84.49360504294809,-8.052479080245398
84.77921669862401,-8.048525476224187
85.0657938003573,-8.044554351215565
85.35333961162144,-8.040565682506534
85.64185740692153,-8.036559447972575
85.93135047183122,-8.032535626065123
86.22182210303045,-8.02849419584235
86.51327560834281,-8.024435136957155
86.80571430677314,-8.020358429672813
87.0991415285456,-8.016264054868998
87.39356061514125,-8.01215199405199
87.68897491933643,-8.00802222934759
87.9853878052407,-8.003874743523069
88.28280264833532,-7.9997095199987935
88.5812228355115,-7.995526542834133
88.88065176510904,-7.991325796741561
89.18109284695522,-7.987107267117179
89.48254950240342,-7.982870940013568
89.78502516437212,-7.978616802173812
90.08852327738394,-7.974344841005048
90.39304729760508,-7.970055044628382
90.69860069288438,-7.965747401856516
91.00518694279307,-7.9614219022147985
91.31280953866433,-7.957078535925771
91.62147198363282,-7.952717293955086
91.93117779267496,-7.948338167976709
92.24193049264862,-7.94394115041041
92.5537336223335,-7.939526234416047
92.86659073247132,-7.935093413897232
93.18050538580634,-7.930642683515169
93.49548115712578,-7.92617403869084
93.81152163330064,-7.921687475623796
94.1286304133266,-7.917182991275386
94.44681110836493,-7.912660583395118
94.76606734178355,-7.908120250533094
95.08640274919844,-7.903561992017996
95.4078209785149,-7.89898580799915
95.73032568996916,-7.894391699408066
96.05392055617008,-7.889779668030075
96.37860926214104,-7.885149716447023
96.7043955053616,-7.880501848082557
97.03128299581002,-7.875836067183021
97.35927545600514,-7.871152378857999
97.68837662104907,-7.86645078905501
98.0185902386696,-7.861731304575494
98.34992006926282,-7.8569939330990035
98.68236988593596,-7.852238683153232
99.0159434745504,-7.847465564161968
99.35064463376482,-7.842674586412758
99.6864771750784,-7.83786576109433
100.02344492287436,-7.833039100288222
100.36155171446302,-7.825997759022492
100.70080140012624,-7.818591887445055
101.04119784316076,-7.810558472370165
101.3827449199223,-7.802270268003674
101.72544651986978,-7.793977509842986
102.06930654560952,-7.785672964003201
102.41432891293988,-7.777339297315261
102.76051755089532,-7.768976490741019
103.10787640179188,-7.761227645059403
103.45640942127156,-7.7548994232071085
103.80612057834772,-7.74863940042907
104.15701385544963,-7.742804490963642
104.50909324846872,-7.736875756700584
104.86236276680344,-7.728436711940104
105.21682643340507,-7.719968751657941
105.57248828482372,-7.711471864636147
105.92935237125404,-7.702946040525902
106.2874227565816,-7.694402799545264
106.64670351842864,-7.685834502098779
107.00719874820128,-7.67725163741993
107.36891255113574,-7.66864909361134
107.73184904634464,-7.660044427527329
108.09601236686476,-7.651441152180402
108.46140665970351,-7.6428092176056195
108.82803608588635,-7.63414862166833
109.1959048205042,-7.625463503045413
109.56501705276088,-7.616767293112572
109.93537698602094,-7.60804458460877
110.30698883785723,-7.599331900925636
110.67985684009945,-7.590590770365466
111.05398523888188,-7.581848193152179
111.42937829469211,-7.573079884098669
111.806040282419,-7.5642977562984495
112.18397549140197,-7.555491641344113
112.56318822547952,-7.547105240687453
112.94368280303836,-7.538952706294041
113.32546355706246,-7.532111021416723
113.70853483518252,-7.52662500902426
114.09290099972554,-7.520136269373639
114.478566427764,-7.511820225248068
114.86553551116646,-7.503355178751271
115.25381265664711,-7.494410462877939
115.64340228581617,-7.485439266196221
116.0343088352297,-7.476457428314225
116.42653675644095,-7.467447834961794
116.82009051605056,-7.458436031371423
117.21497459575744,-7.449398390945201
117.61119349240988,-7.440365437659944
118.00875171805684,-7.431313360973491
118.40765379999924,-7.42225120978852
118.80790428084131,-7.413170865233422
119.20950771854278,-7.404073318479648
119.61246868647056,-7.394958034534638
120.01679177345048,-7.385825584426925
120.4224815838202,-7.376682635893687
120.8295427374812,-7.367516827602114
121.23797986995146,-7.358337441637111
121.64779763241832,-7.349132885947492
122.05900069179144,-7.339917356848397
122.47159373075604,-7.330675091285462
122.8855814478256,-7.321428122320465
