frequency,raw
20.000000000000004,-3.989800547975175
20.067605508258467,-3.988857856140555
20.135439541754284,-3.9879049400508904
20.20350287296568,-3.986941788553906
20.271796276982094,-3.9859683901846217
20.34032053151297,-3.9849847331654966
20.40907641689662,-3.984009227485513
20.478064716109134,-3.983030913092948
20.54728621477325,-3.982042390378641
20.616741701167346,-3.981043646609821
20.6864319662344,-3.980034668740774
20.756357803590973,-3.978955454102408
20.82652000953629,-3.977766281259972
20.896919383061288,-3.97656629352088
20.967556725857687,-3.975355474764525
21.038432842327182,-3.974133808548602
21.10954853959054,-3.972901278115303
21.18090462749683,-3.9718683794470375
21.25250191863264,-3.970826638571276
21.324341228331296,-3.969774699819229
21.39642337468222,-3.968712547579361
21.46874917854015,-3.967640165929454
21.541319463534588,-3.966557538627924
21.61413505607911,-3.9654646491283088
21.687196785380777,-3.964361480564907
21.760505483449627,-3.9632480157596706
21.83406198510812,-3.9621242372250154
21.907867128000625,-3.9609511859760422
21.981921752602993,-3.959645325146496
22.05622670223213,-3.958328550647271
22.130782823055547,-3.9570008418855607
22.205590964101077,-3.955662177950225
22.280651977266455,-3.954312537606334
22.35596671732911,-3.952951899294712
22.431536041955837,-3.951580241138392
22.50736081171256,-3.9501975409334498
22.5834418900742,-3.9488037761570687
22.659780143434396,-3.9473989239618006
22.736376441115492,-3.945999928165404
22.813231655378377,-3.9446009490569174
22.89034666143237,-3.9431909070859272
22.9677223374453,-3.941769778438138
23.045359564553426,-3.940337538962854
23.123259226871458,-3.9388468893432544
23.201422211502702,-3.9372334866284286
23.279849408549108,-3.935608361687192
23.35854171112138,-3.933971487262738
23.437500015349237,-3.9323228357588618
23.51672522039151,-3.930662379254633
23.59621822844647,-3.929196883142717
23.67597994476207,-3.9277291392984703
23.756011277646213,-3.926250236205607
23.83631313847718,-3.924760147084505
23.916886441713913,-3.9232588448257455
23.997732104906515,-3.921652956965271
24.07885104870666,-3.9199705093872974
24.160244196878043,-3.9182762291507394
24.24191247630697,-3.916570086032935
24.32385681701288,-3.91485204946224
24.406078152158894,-3.913085547292876
24.48857741806252,-3.911156132474983
24.57135555420627,-3.909214096725104
24.654413503248353,-3.9072594059847776
24.73775221103344,-3.905292025886934
24.82137262660338,-3.903311921679763
24.905275702208097,-3.9015167520613345
24.98946239331635,-3.8997321904420814
25.07393365862665,-3.897935545821569
25.158690460078187,-3.896126784621498
25.243733762861737,-3.8943058729114983
25.32906453543071,-3.89238270627176
25.41468374951219,-3.8903802150580034
25.500592380117883,-3.888364938230724
25.586791405555378,-3.886336838724512
25.67328180743918,-3.8842958791111495
25.76006457070192,-3.882249446074262
25.847140683605573,-3.88021487317873
25.934511137752747,-3.8781674347386494
26.02217692809787,-3.8761070923109777
26.110139052958676,-3.8740338071044778
26.1983985140274,-3.871947539976014
26.28695631638233,-3.870035866576945
26.375813468499196,-3.86814014548574
26.464970982262617,-3.866232055215812
26.554429872977696,-3.864311557717522
26.644191159381517,-3.8623786145696655
26.7342558636548,-3.860356040320974
26.82462501143352,-3.858240558031301
26.915299631820556,-3.8561119803172423
27.006280757397462,-3.853970265589911
27.097569424236205,-3.851815371917714
27.189166671910932,-3.8496472570086335
27.281073543509866,-3.8474658782302167
27.373291085647153,-3.84527119258397
27.465820348474757,-3.8430631567288343
27.55866238569449,-3.84084172696755
27.6518182545699,-3.838606859234849
27.745289015938447,-3.8363830932926386
27.839075734223485,-3.834151840275046
27.933179477446387,-3.831907118507832
28.027601317238783,-3.8296488828680224
28.12234232885466,-3.827377087851777
28.2174035911827,-3.825120859076985
28.31278618675852,-3.822880504427301
28.40849120177697,-3.8206266502183808
28.504519726104583,-3.81835925019873
28.600872853291932,-3.816078257766816
28.69755168058606,-3.8137981484197456
28.79455730894304,-3.8116763791961215
28.89189084304048,-3.8095415061819984
28.989553391290073,-3.807393483464777
29.08754606585029,-3.8052322647899217
29.185869982638955,-3.8030578035371536
29.28452626134604,-3.80074836617004
29.38351602544639,-3.798385647904126
29.48284040221244,-3.796008998733942
29.58250052272719,-3.793618368774089
29.682497521896956,-3.791213707784626
29.78283253846438,-3.7888862574326327
29.883506715021376,-3.786667956796147
29.984521198022087,-3.784436197530059
30.085877137796036,-3.782190930402933
30.18757568856117,-3.779932105806755
30.289618008436975,-3.7776619406397343
30.39200525945773,-3.7753999825246582
30.494738607585724,-3.773124397544597
30.597819222724464,-3.770835134937387
30.701248278732127,-3.7685321435724446
30.805026953434773,-3.7662153719858416
30.909156428639907,-3.7640441091912336
31.01363789014985,-3.76190994108137
31.11847252777523,-3.759762547070513
31.223661535348608,-3.757601876634769
31.329206110737985,-3.755427878909527
31.43510745586052,-3.7532571679630418
31.541366776696176,-3.751095619964884
31.64798528330143,-3.748920722613709
31.754964189823134,-3.7467324240697177
31.862304714512263,-3.744530672118598
31.9700080797378,-3.742315414209404
32.078075512000694,-3.740086597418787
32.18650824194782,-3.737844168485924
32.295307504385924,-3.73558807377735
32.404474538295815,-3.733318259308827
32.51401058684631,-3.731034670730141
32.623916897408556,-3.728875496520879
32.734194721570134,-3.7267704425142982
32.84484531514929,-3.724652146394838
32.955869938209375,-3.72252055474148
33.067269855073,-3.7203756137623425
33.179046334336604,-3.718287861590848
33.29120064888482,-3.716318824116605
33.403734075904936,-3.7143369592799806
33.51664789690154,-3.7123422142185425
33.62994339771106,-3.710334535709124
33.74362186851634,-3.7083146490862022
33.857684603861465,-3.7063054722626663
33.972132902666424,-3.704283283184659
34.086968068241866,-3.7022480275014344
34.20219140830406,-3.700199650561744
34.317804234989644,-3.698138097331224
34.433807864870694,-3.6960633124400704
34.550203618969654,-3.6939752401813144
34.66699282277435,-3.691873824479909
34.78417680625318,-3.689759008927252
34.90175690387013,-3.687630736754643
35.019734454600105,-3.685621132002914
35.1381108019441,-3.683859567185312
35.25688729394449,-3.68208570449525
35.37606528320041,-3.68029949026085
35.4956461268832,-3.678500870481018
35.61563118675173,-3.676689790826188
35.736021829168045,-3.6746932794753984
35.85681942511289,-3.672677080856475
35.97802535020122,-3.670647648770682
36.099640984698055,-3.668604925495204
36.22166771353398,-3.666548852939587
36.34410692632112,-3.664709121451709
36.466960017368834,-3.663007047982139
36.5902283856996,-3.6612927364051457
36.713913435065045,-3.6595661316148926
36.83801657396178,-3.657827178199012
36.9625392156476,-3.656076556245423
37.087482778157465,-3.654315563450806
37.2128486843197,-3.6525420633273433
37.33863836177216,-3.650755999145106
37.46485324297849,-3.648957313856936
37.59149476524451,-3.6471459501065993
37.7185643707345,-3.645498811929547
37.846063506487674,-3.64385221502321
37.973993624434584,-3.642193408819269
38.10235618141378,-3.640522336790976
38.23115263918826,-3.638838942122197
38.36038446446222,-3.637258002596208
38.49005312889774,-3.6357350317811785
38.62016010913146,-3.6342001920569658
38.750706886791534,-3.6326534274156574
38.88169494851435,-3.6310946815228617
39.0131257859616,-3.629569887292973
39.14500089583717,-3.628170094901518
39.27732177990424,-3.6267587693224903
39.41008994500234,-3.625335855075823
39.543306903064526,-3.623901296399173
39.67697417113463,-3.622455037166963
39.81109327138451,-3.620992283414432
39.945665731131385,-3.619517188675807
40.08069308285518,-3.6180302055222504
40.21617686421609,-3.616531276566106
40.35211861807197,-3.6150203441688777
40.488519892496,-3.613597563414126
40.62538224079428,-3.612237124042593
40.76270722152344,-3.6108650968542935
40.900496398508565,-3.60948142494154
41.0387513408608,-3.6080860511378066
41.17747362299538,-3.606677432911936
41.316664824649486,-3.60525095877108
41.45632653090026,-3.603812584015729
41.5964603321828,-3.6023622502139214
41.73706782430831,-3.600899898624367
41.87815060848233,-3.599425470250267
42.01971029132288,-3.5980901187725016
42.161748484878814,-3.5967707752519043
42.3042668066481,-3.5954397826210527
42.447266879596384,-3.59409708274598
42.59075033217527,-3.592742617231394
42.73471879834107,-3.5915578305416385
42.87917391757332,-3.5905305605107833
43.02411733489335,-3.5894925340948975
43.169550700883235,-3.58844369576177
43.31547567170437,-3.587383989760331
43.461893909116505,-3.586283514393324
43.60880708049657,-3.5850016335301276
43.756216858857705,-3.5837080391185654
43.90412492286826,-3.58240267205649
44.05253295687094,-3.58108547296109
44.201442650902045,-3.5797563822107548
44.350855700710625,-3.5787079177798264
44.50077380777786,-3.57771779840092
44.65119867933635,-3.5767168336910937
44.802132028389686,-3.5757049671198646
44.95357557373179,-3.5746821418921555
45.10553103996666,-3.5736321815678465
45.25800015752792,-3.572554728594722
45.410984662698496,-3.571466035177479
45.56448629763047,-3.5703660432022786
45.71850681036483,-3.569254694305245
45.873047954851465,-3.568157328024812
46.028111490969096,-3.567193964434528
46.18369918454533,-3.5662196450356975
46.33981280737672,-3.5652343124695576
46.49645413724895,-3.564237909159532
46.653624957957206,-3.563230377290666
46.81132705932633,-3.562336377684669
46.9695622372313,-3.5614566873957574
47.12833229361758,-3.5605662017971453
47.28763903652179,-3.5596648639211352
47.44748428009214,-3.5587526165881704
47.6078698446092,-3.557899953877159
47.768797556506605,-3.557111518638059
47.93026924839177,-3.556312494048345
48.09228675906692,-3.555502823769004
48.25485193354984,-3.554682451280687
48.41796662309507,-3.5538489731425584
48.58163268521486,-3.5529856484243973
48.74585198370038,-3.552111378512567
48.9106263886429,-3.551226105899331
49.075957776455105,-3.550329772854672
49.24184802989251,-3.5494223214862632
49.408299038074865,-3.548613849471813
49.57531269650765,-3.547827382625218
49.74289090710363,-3.547030107421734
49.91103557820467,-3.5462219668805743
50.079748624603205,-3.5454029038821164
50.24903196756433,-3.544639448722602
50.41888753484751,-3.543962209868757
50.589317260728485,-3.543274430014008
50.76032308602153,-3.5425760532335544
50.93190695810125,-3.541867023498369
51.10407083092501,-3.541158424217277
51.276816665055065,-3.5405646794945733
51.45014642768095,-3.5399605750772127
51.624062092641765,-3.539346055926674
51.79856564044874,-3.538721066851115
51.973659058307845,-3.5380855525501285
52.14934434014229,-3.537537545548996
52.32562348661537,-3.537014495237174
52.502498505153056,-3.536481204940551
52.67997140996709,-3.535937620396353
52.858044222077694,-3.535383687247786
53.0367189693368,-3.5348091090851432
53.21599768645099,-3.534206794389632
53.39588241500468,-3.533593874390282
53.57637520348349,-3.5329702940008647
53.757478107297366,-3.532335998094233
53.939193188804225,-3.531706956942029
54.121522517333254,-3.531368900139092
54.30446816920859,-3.531021036190517
54.48803222777287,-3.530663313248002
54.672216783410974,-3.530295679395244
54.85702393357395,-3.529918082655804
55.04245578280275,-3.5294872201414775
55.2285144427523,-3.529028787644433
55.41520203221541,-3.528560030671148
55.602520677147105,-3.5280808963427304
55.790472510688616,-3.5275913317653536
55.97905967319187,-3.527137323778932
56.16828431224375,-3.526752889592554
56.358148582690504,-3.526358292656178
56.54865464666248,-3.525953481381499
56.73980467359848,-3.525538404142052
56.931600840270704,-3.525114035506172
57.12404533080943,-3.52480163335524
57.31714033672791,-3.524479227357486
57.510888056947245,-3.524146767299123
57.705290697821525,-3.5238042029649246
57.90035047316296,-3.5234514841542968
58.09606960426703,-3.5230677799829304
58.292450319937835,-3.522662231240623
58.48949485651337,-3.522246268135028
58.687205457891174,-3.5218198401723373
58.885584375553655,-3.521382896931209
59.084633868593954,-3.520975083047945
59.28435620374156,-3.520639618005134
59.48475365538805,-3.5202939012591847
59.68582850561318,-3.519937883945939
59.88758304421066,-3.5195715172836888
60.0900195687144,-3.519194760892975
60.2931403844246,-3.518893836996879
60.49694780443403,-3.51858270950729
60.701444149654286,-3.518261330944385
60.906631748842294,-3.517929653899061
61.11251293862688,-3.517587631060887
61.31909006353527,-3.5173303676312933
61.52636547601989,-3.5171202945963893
61.73434153648501,-3.51690025096296
61.94302061331383,-3.516670191601171
62.15240508289521,-3.5164300715458743
62.36249732965096,-3.516148730631327
62.5732997460629,-3.5157834033618705
62.78481473269999,-3.5154075265147102
62.99704469824591,-3.515021054484236
63.209992059526215,-3.514623941836699
63.4236592415361,-3.5142161432850076
63.638048677467886,-3.513938105892025
63.85316280873877,-3.513661398443643
64.06900408501856,-3.513374386083361
64.28557496425763,-3.513077025946112
64.50287791271495,-3.512769275405027
64.72091540498609,-3.512387419076136
64.93968992403147,-3.5119523558980568
65.15920396120454,-3.5115064159362652
65.37946001628028,-3.5110495562001662
65.6004605974835,-3.5105817338720615
65.82220822151761,-3.510182471721284
66.04470541359316,-3.5100316824044575
66.26795470745648,-3.5098709497743132
66.49195864541885,-3.509700235864107
66.71671977838506,-3.509519502992862
66.94224066588282,-3.5093287137538964
67.1685238760917,-3.508853495311166
67.39557198587242,-3.508343775908672
67.6233875807962,-3.507822879946905
67.85197325517414,-3.507290767778266
68.08133161208693,-3.5067474000459824
68.31146526341435,-3.506258783210023
68.54237682986505,-3.505808792861668
68.77406894100636,-3.505347822915048
69.00654423529437,-3.504875836628263
69.23980536010373,-3.504392797590604
69.47385497175809,-3.5039164526708517
69.70869573556014,-3.503488744854258
69.94433032582201,-3.5030501392824207
70.1807614258958,-3.502600601857248
70.41799172820397,-3.502140098862877
70.65602393427025,-3.5016685969747092
70.89486075475018,-3.50115455784595
71.13450490946212,-3.500624105042257
71.37495912741808,-3.500082431179734
71.61622614685488,-3.499529504132567
71.85830871526545,-3.498965292194895
72.1012095894299,-3.498331076606417
72.34493153544712,-3.497635189443654
72.589477328766,-3.496927556428199
72.83484975421742,-3.496208146384271
73.08105160604555,-3.4954769285934453
73.32808568794003,-3.49471332805515
73.57595481306774,-3.493852501682204
73.82466180410471,-3.492979420291673
74.07420949326853,-3.4920940538696534
74.32460072235035,-3.491196372914884
74.57583834274745,-3.490286348420394
74.82792521549557,-3.489335217075663
75.0808642113016,-3.48836546491819
75.33465821057614,-3.487383167172899
75.58931010346632,-3.4863882965232103
75.8448227898889,-3.485380826220324
76.10119917956307,-3.484385200996192
76.35844219204375,-3.4834004336504782
76.61655475675464,-3.482403151912714
76.87553981302183,-3.481393331859162
77.13540031010699,-3.480370950123778
77.39613920724122,-3.479305341766276
77.65775947365869,-3.478035942993128
77.9202640886302,-3.4767531662766045
78.18365604149751,-3.47545698817541
78.44793833170704,-3.474147385867714
78.71311396884423,-3.4728243371831637
78.97918597266774,-3.471531309854183
79.24615737314387,-3.470234274952007
79.514031210481,-3.468923910069015
79.78281053516419,-3.467600196265051
80.05249840799011,-3.466263115254257
80.32309790010171,-3.464797889247342
80.5946120930233,-3.463180897842631
80.86704407869543,-3.46154963297708
81.14039695951045,-3.4599040762964504
81.41467384834752,-3.458244210198911
81.68987786860825,-3.456583291882318
81.96601215425225,-3.455017437843967
82.24307984983264,-3.4534376405668623
82.52108411053214,-3.4518438867814143
82.80002810219875,-3.45023616399483
83.07991500138196,-3.448614460470918
83.36074799536888,-3.446731483580327
83.64253028222056,-3.444766134313865
83.92526507080828,-3.442785706916982
84.2089555808502,-3.44079018925788
84.49360504294809,-3.438779570025822
84.77921669862401,-3.4367283737687733
85.0657938003573,-3.434626307229397
85.35333961162144,-3.432508903211467
85.64185740692153,-3.430376153050026
85.93135047183122,-3.428228048912954
86.22182210303045,-3.4260717140874877
86.51327560834281,-3.423988112526676
86.80571430677314,-3.421889460684881
87.0991415285456,-3.419775755359251
87.39356061514125,-3.417646994253635
87.68897491933643,-3.4155031759810064
87.9853878052407,-3.4131639689815008
88.28280264833532,-3.4107410286062847
88.5812228355115,-3.408302190799467
88.88065176510904,-3.4058474550986717
89.18109284695522,-3.403376822005714
89.48254950240342,-3.4009181913424023
89.78502516437212,-3.3984846273417832
90.08852327738394,-3.3960354060002342
90.39304729760508,-3.393570532524373
90.69860069288438,-3.391090013117323
91.00518694279307,-3.38858032831148
91.31280953866433,-3.3857945466454047
91.62147198363282,-3.382992217618273
91.93117779267496,-3.380173348413359
92.24193049264862,-3.37733794726269
92.5537336223335,-3.3744860234544936
92.86659073247132,-3.371707678134524
93.18050538580634,-3.368953313756227
93.49548115712578,-3.3661829023460452
93.81152163330064,-3.363396458990838
94.1286304133266,-3.3605939998529797
94.44681110836493,-3.357733500590965
94.76606734178355,-3.354784158975076
95.08640274919844,-3.351818468436603
95.4078209785149,-3.3488364483749957
95.73032568996916,-3.345838119293756
96.05392055617008,-3.34282472725214
96.37860926214104,-3.339895244174863
96.7043955053616,-3.336949863390096
97.03128299581002,-3.33398861125566
97.35927545600514,-3.331011515332207
97.68837662104907,-3.3280186043854942
98.0185902386696,-3.324830264403644
98.34992006926282,-3.321533517820695
98.68236988593596,-3.318220129381981
99.0159434745504,-3.3148901296623197
99.35064463376482,-3.3115435504504496
99.6864771750784,-3.3082723009501342
100.02344492287436,-3.3051834231092574
100.36155171446302,-3.30207905158613
100.70080140012624,-3.298959226533039
101.04119784316076,-3.295823989424172
101.3827449199223,-3.2926733830367376
101.72544651986978,-3.289240536589965
102.06930654560952,-3.2857857157240544
102.41432891293988,-3.2823147369232406
102.76051755089532,-3.278827645152574
103.10787640179188,-3.275324486677936
103.45640942127156,-3.2719754827315572
103.80612057834772,-3.268703184608565
104.15701385544963,-3.2654158552481563
104.50909324846872,-3.262113549356377
104.86236276680344,-3.258796323044834
105.21682643340507,-3.255374264737266
105.57248828482372,-3.251727833576246
105.92935237125404,-3.248065646177022
106.2874227565816,-3.244387760865175
106.64670351842864,-3.2406942373566703
107.00719874820128,-3.2369851368076445
107.36891255113574,-3.233558962835825
107.73184904634464,-3.230138493531402
108.09601236686476,-3.226703719579263
108.46140665970351,-3.223254711547922
108.82803608588635,-3.219791541498014
109.1959048205042,-3.216226509742182
109.56501705276088,-3.212591822608224
109.93537698602094,-3.2089427137291775
110.30698883785723,-3.205279259481487
110.67985684009945,-3.201601537748031
111.05398523888188,-3.197888585401109
111.42937829469211,-3.194098520986324
111.806040282419,-3.190294147735368
112.18397549140197,-3.1864755486441116
112.56318822547952,-3.18264280826668
112.94368280303836,-3.178796012688056
113.32546355706246,-3.175028685711007
113.70853483518252,-3.1712576519757385
114.09290099972554,-3.1674731808390724
114.478566427764,-3.1636753658037535
114.86553551116646,-3.159864301959217
115.25381265664711,-3.1559595030059877
115.64340228581617,-3.1519819627440167
116.0343088352297,-3.147990994283359
116.42653675644095,-3.143986697473721
116.82009051605056,-3.139969173759592
117.21497459575744,-3.135960752955703
117.61119349240988,-3.132020724958075
118.00875171805684,-3.128068134399855
118.40765379999924,-3.1241030903720675
118.80790428084131,-3.120125703601777
119.20950771854278,-3.116136086434133
119.61246868647056,-3.11203674359882
120.01679177345048,-3.107911039971666
