frequency,raw
20.000000000000004,-3.209459530804952
20.067605508258467,-3.209681377527646
20.135439541754284,-3.209899439804382
20.20350287296568,-3.210113720656369
20.271796276982094,-3.2103242214944605
20.34032053151297,-3.2108502164161363
20.40907641689662,-3.211497410244987
20.478064716109134,-3.2121423305218846
20.54728621477325,-3.212784983734982
20.616741701167346,-3.213334128307011
20.6864319662344,-3.2137651073670215
20.756357803590973,-3.2141931374268307
20.82652000953629,-3.2146182216914294
20.896919383061288,-3.2150022651444328
20.967556725857687,-3.2151862940653815
21.038432842327182,-3.215366591873575
21.10954853959054,-3.21554315854335
21.18090462749683,-3.215715994051959
21.25250191863264,-3.2157715609439403
21.324341228331296,-3.215807957083377
21.39642337468222,-3.2158401849131684
21.46874917854015,-3.2158682419883227
21.541319463534588,-3.2160369553659907
21.61413505607911,-3.216297148033001
21.687196785380777,-3.2165539747863687
21.760505483449627,-3.2168074353470266
21.83406198510812,-3.2170575285982137
21.907867128000625,-3.2173042531877267
21.981921752602993,-3.217547609712275
22.05622670223213,-3.2177875972228067
22.130782823055547,-3.2180250794604
22.205590964101077,-3.2182774014727005
22.280651977266455,-3.2185264149621613
22.35596671732911,-3.2187721185097073
22.431536041955837,-3.2190145104634653
22.50736081171256,-3.2193805906397435
22.5834418900742,-3.2197826038572965
22.659780143434396,-3.22018186176513
22.736376441115492,-3.220578363854175
22.813231655378377,-3.2210679988515274
22.89034666143237,-3.2216563918248293
22.9677223374453,-3.222242693881862
23.045359564553426,-3.2228269061969814
23.123259226871458,-3.223432036782647
23.201422211502702,-3.224123042673028
23.279849408549108,-3.224812336452401
23.35854171112138,-3.22549992004543
23.437500015349237,-3.226185794945519
23.51672522039151,-3.2269776360676903
23.59621822844647,-3.2277764379941054
23.67597994476207,-3.2285739284539057
23.756011277646213,-3.229370109785664
23.83631313847718,-3.2301613368524653
23.916886441713913,-3.230949273390829
23.997732104906515,-3.2317358879774414
24.07885104870666,-3.2325211822726514
24.160244196878043,-3.233346762131987
24.24191247630697,-3.234242103391195
24.32385681701288,-3.2351365092262383
24.406078152158894,-3.2360299820239975
24.48857741806252,-3.23693339903785
24.57135555420627,-3.2379449392239406
24.654413503248353,-3.2389559577934395
24.73775221103344,-3.239966457864854
24.82137262660338,-3.2409764423897873
24.905275702208097,-3.242086898555561
24.98946239331635,-3.2432206632493252
25.07393365862665,-3.2443543423929
25.158690460078187,-3.245487939734608
25.243733762861737,-3.246638479664287
25.32906453543071,-3.2478039768437714
25.41468374951219,-3.2489695110823495
25.500592380117883,-3.2501350859785583
25.586791405555378,-3.2513007045239326
25.67328180743918,-3.252466369087185
25.76006457070192,-3.253632084281093
25.847140683605573,-3.254797853145459
25.934511137752747,-3.255963678581716
26.02217692809787,-3.257194092609161
26.110139052958676,-3.258426515511482
26.1983985140274,-3.2596592275758347
26.28695631638233,-3.2608922318828624
26.375813468499196,-3.262233265058197
26.464970982262617,-3.2636223795218213
26.554429872977696,-3.2650123205426955
26.644191159381517,-3.2664030923943486
26.7342558636548,-3.2678542191226003
26.82462501143352,-3.2693902562074277
26.915299631820556,-3.2709276215170595
27.006280757397462,-3.272466320512314
27.097569424236205,-3.2740207362200846
27.189166671910932,-3.2756678271986166
27.281073543509866,-3.277316624595552
27.373291085647153,-3.2789671345130924
27.465820348474757,-3.2806193629410556
27.55866238569449,-3.2822539736432788
27.6518182545699,-3.283887017464234
27.745289015938447,-3.2855217204598515
27.839075734223485,-3.287158087854228
27.933179477446387,-3.2888533428287676
28.027601317238783,-3.2905923409340554
28.12234232885466,-3.292333354001779
28.2174035911827,-3.2940763879063297
28.31278618675852,-3.2958342361566655
28.40849120177697,-3.2976242483104183
28.504519726104583,-3.299416443101288
28.600872853291932,-3.301210826403517
28.69755168058606,-3.303007403884069
28.79455730894304,-3.3048061810847713
28.89189084304048,-3.30660716353211
28.989553391290073,-3.308410356594096
29.08754606585029,-3.310215765473118
29.185869982638955,-3.312035954118049
29.28452626134604,-3.3138628277607927
29.38351602544639,-3.3156919897169503
29.48284040221244,-3.317523444882817
29.58250052272719,-3.3194412220169927
29.682497521896956,-3.321460022467723
29.78283253846438,-3.3234817479537644
29.883506715021376,-3.32550640509287
29.984521198022087,-3.32755935666558
30.085877137796036,-3.3297297300095434
30.18757568856117,-3.3319035263232686
30.289618008436975,-3.3340807532399452
30.39200525945773,-3.3362614183003982
30.494738607585724,-3.3384046130885174
30.597819222724464,-3.340546693479368
30.701248278732127,-3.3426920804380353
30.805026953434773,-3.344840780353549
30.909156428639907,-3.3470990604676425
31.01363789014985,-3.3494253691545968
31.11847252777523,-3.3517555875993517
31.223661535348608,-3.354089723850501
31.329206110737985,-3.356439980654313
31.43510745586052,-3.358817504204295
31.541366776696176,-3.361199089164561
31.64798528330143,-3.363584743545541
31.754964189823134,-3.365974464733372
31.862304714512263,-3.3683681187037897
31.9700080797378,-3.370765864968725
32.078075512000694,-3.3731677112800553
32.18650824194782,-3.37557366496858
32.295307504385924,-3.3780770421210944
32.404474538295815,-3.3806103691174956
32.51401058684631,-3.383148227973007
32.623916897408556,-3.385690627100223
32.734194721570134,-3.3882375746554363
32.84484531514929,-3.3907890788401405
32.955869938209375,-3.393345147890059
33.067269855073,-3.395905789784448
33.179046334336604,-3.398471012474162
33.29120064888482,-3.401040823879449
33.403734075904936,-3.403615231478451
33.51664789690154,-3.406194242922379
33.62994339771106,-3.40877786558948
33.74362186851634,-3.4114212183444765
33.857684603861465,-3.4140724177016435
33.972132902666424,-3.416728447231502
34.086968068241866,-3.419389314630778
34.20219140830406,-3.4221320547143423
34.317804234989644,-3.4249181386151912
34.433807864870694,-3.4277094734918254
34.550203618969654,-3.4305060679586417
34.66699282277435,-3.433261763589348
34.78417680625318,-3.4359500815633006
34.90175690387013,-3.4386432825953888
35.019734454600105,-3.4413413734470537
35.1381108019441,-3.444064006907644
35.25688729394449,-3.446950464128209
35.37606528320041,-3.4498424349012917
35.4956461268832,-3.4527399277876087
35.61563118675173,-3.455642951116408
35.736021829168045,-3.4584919390493067
35.85681942511289,-3.4613341363153576
35.97802535020122,-3.464181645433584
36.099640984698055,-3.4670344736575047
36.22166771353398,-3.4698441468050234
36.34410692632112,-3.4726195391748456
36.466960017368834,-3.475399973902804
36.5902283856996,-3.4781854567754777
36.713913435065045,-3.4809933340968846
36.83801657396178,-3.48385269127792
36.9625392156476,-3.4867173288351374
37.087482778157465,-3.48958725284864
37.2128486843197,-3.492462469340308
37.33863836177216,-3.4952772528456326
37.46485324297849,-3.4980966758373753
37.59149476524451,-3.5009211843634325
37.7185643707345,-3.5037507831794144
37.846063506487674,-3.506629632721759
37.973993624434584,-3.5095314397544755
38.10235618141378,-3.5124385605909922
38.23115263918826,-3.5153510003816675
38.36038446446222,-3.518203642754127
38.49005312889774,-3.52097662548856
38.62016010913146,-3.5237544345548377
38.750706886791534,-3.526537072920854
38.88169494851435,-3.529324544187713
39.0131257859616,-3.5321168538291907
39.14500089583717,-3.534914001324886
39.27732177990424,-3.5377159892384054
39.41008994500234,-3.5405228201135572
39.543306903064526,-3.5431308575022227
39.67697417113463,-3.545714292632939
39.81109327138451,-3.5483017897165143
39.945665731131385,-3.5508933481635494
40.08069308285518,-3.5534951958020393
40.21617686421609,-3.5561053324754055
40.35211861807197,-3.558719563466646
40.488519892496,-3.5613378878571993
40.62538224079428,-3.563960294634783
40.76270722152344,-3.5665867711622856
40.900496398508565,-3.569217337589651
41.0387513408608,-3.5718519925727885
41.17747362299538,-3.5744821797092534
41.316664824649486,-3.5769038642944815
41.45632653090026,-3.579328885185081
41.5964603321828,-3.5817572377539393
41.73706782430831,-3.5841889178239024
41.87815060848233,-3.5868100090049433
42.01971029132288,-3.5894940642516096
42.161748484878814,-3.5921822636283633
42.3042668066481,-3.59487460504462
42.447266879596384,-3.5973802254061824
42.59075033217527,-3.599682470131171
42.73471879834107,-3.6019875033918014
42.87917391757332,-3.6042953181341897
43.02411733489335,-3.606625830102689
43.169550700883235,-3.6090384710740375
43.31547567170437,-3.611454207089912
43.461893909116505,-3.613873031700864
43.60880708049657,-3.6162949383668983
43.756216858857705,-3.618475035782676
43.90412492286826,-3.620636579316407
44.05253295687094,-3.622800283482997
44.201442650902045,-3.624966138378031
44.350855700710625,-3.627158555105921
44.50077380777786,-3.6293667885799055
44.65119867933635,-3.631577270771516
44.802132028389686,-3.6337899915600937
44.95357557373179,-3.6360528909462633
45.10553103996666,-3.638402311320688
45.25800015752792,-3.6407543862405785
45.410984662698496,-3.643109106604395
45.56448629763047,-3.645447777958382
45.71850681036483,-3.647585379277542
45.873047954851465,-3.6497248463947263
46.028111490969096,-3.6518661669198353
46.18369918454533,-3.654009328937215
46.33981280737672,-3.65605253372906
46.49645413724895,-3.658072505166107
46.653624957957206,-3.6600938521149153
46.81132705932633,-3.662116560419293
46.9695622372313,-3.6641858995227983
47.12833229361758,-3.666297645960524
47.28763903652179,-3.668411002348599
47.44748428009214,-3.67052595496355
47.6078698446092,-3.672549569099159
47.768797556506605,-3.674289912610335
47.93026924839177,-3.676030534115513
48.09228675906692,-3.67777141521571
48.25485193354984,-3.6795125373759534
48.41796662309507,-3.6814728104515093
48.58163268521486,-3.6834414463121763
48.74585198370038,-3.6854110344858952
48.9106263886429,-3.6873815585768304
49.075957776455105,-3.6891800680862454
49.24184802989251,-3.690900357304986
49.408299038074865,-3.6926206804514323
49.57531269650765,-3.694341017739639
49.74289090710363,-3.696102779393759
49.91103557820467,-3.697924665272438
50.079748624603205,-3.699746848700942
50.24903196756433,-3.701569310652925
50.41888753484751,-3.70337550958074
50.589317260728485,-3.7050707403665
50.76032308602153,-3.706765759898764
50.93190695810125,-3.708460547199228
51.10407083092501,-3.7101550811847166
51.276816665055065,-3.7117527494737774
51.45014642768095,-3.713332771223412
51.624062092641765,-3.714912090561796
51.79856564044874,-3.716490684646914
51.973659058307845,-3.7181295447394893
52.14934434014229,-3.7198137298130094
52.32562348661537,-3.721497482534672
52.502498505153056,-3.7231807808566413
52.67997140996709,-3.7248262589455856
52.858044222077694,-3.7263803798349113
53.0367189693368,-3.7279335462261063
53.21599768645099,-3.7294857342122527
53.39588241500468,-3.731037088421966
53.57637520348349,-3.732600548726086
53.757478107297366,-3.7341630032653215
53.939193188804225,-3.735724427876124
54.121522517333254,-3.737284798319259
54.30446816920859,-3.7388329315751054
54.48803222777287,-3.740375862542868
54.672216783410974,-3.7419176144611512
54.85702393357395,-3.74345816255722
55.04245578280275,-3.7449470751267278
55.2285144427523,-3.746373900781972
55.41520203221541,-3.7477990718058103
55.602520677147105,-3.749222561860401
55.790472510688616,-3.7506674372109745
55.97905967319187,-3.752219690041769
56.16828431224375,-3.753770629036952
56.358148582690504,-3.755320229003971
56.54865464666248,-3.7568684646733423
56.73980467359848,-3.7583850549776545
56.931600840270704,-3.7598966027414535
57.12404533080943,-3.761406595418461
57.31714033672791,-3.762915007116313
57.510888056947245,-3.764359129904312
57.705290697821525,-3.765762362246845
57.90035047316296,-3.767163590935675
58.09606960426703,-3.768562788656439
58.292450319937835,-3.769959928099567
58.48949485651337,-3.771354981902793
58.687205457891174,-3.7727479224622504
58.885584375553655,-3.7741387222558695
59.084633868593954,-3.77552735370705
59.28435620374156,-3.776913789150115
59.48475365538805,-3.7782980009741953
59.68582850561318,-3.7796799614824534
59.88758304421066,-3.781059642926956
60.0900195687144,-3.782437021029369
60.2931403844246,-3.7838120655008494
60.49694780443403,-3.7851847475200575
60.701444149654286,-3.786555039243462
60.906631748842294,-3.787922907575599
61.11251293862688,-3.7892883245790734
61.31909006353527,-3.7906512675457673
61.52636547601989,-3.7920117085415384
61.73434153648501,-3.793369620648989
61.94302061331383,-3.7947249785411343
62.15240508289521,-3.79607775061153
62.36249732965096,-3.797427908901028
62.5732997460629,-3.7987754254450112
62.78481473269999,-3.800120275924396
62.99704469824591,-3.801462428979958
63.209992059526215,-3.802801856448255
63.4236592415361,-3.8041385303954733
63.638048677467886,-3.8054079020555807
63.85316280873877,-3.8066412479519403
64.06900408501856,-3.8078714262634175
64.28557496425763,-3.809098408010024
64.50287791271495,-3.8103084199989423
64.72091540498609,-3.8114929311008905
64.93968992403147,-3.8126740372851273
65.15920396120454,-3.8138517092751134
65.37946001628028,-3.8150400663640918
65.6004605974835,-3.816347671382045
65.82220822151761,-3.8176522174695937
66.04470541359316,-3.818953677144069
66.26795470745648,-3.8202520229392287
66.49195864541885,-3.821547227307978
66.71671977838506,-3.8228392630600214
66.94224066588282,-3.824128102982925
67.1685238760917,-3.825413719919095
67.39557198587242,-3.8266644158627137
67.6233875807962,-3.827885252879992
67.85197325517414,-3.829102588959507
68.08133161208693,-3.830316396589737
68.31146526341435,-3.831496042303287
68.54237682986505,-3.832587349531558
68.77406894100636,-3.833674656513467
69.00654423529437,-3.834757934879275
69.23980536010373,-3.835837156297509
69.47385497175809,-3.837086712457457
69.70869573556014,-3.8383351092027533
69.94433032582201,-3.839579964359487
70.1807614258958,-3.840821252130598
70.41799172820397,-3.8420142684369223
70.65602393427025,-3.8431850060679333
70.89486075475018,-3.8443518856187966
71.13450490946212,-3.845514881159164
71.37495912741808,-3.846629005814101
71.61622614685488,-3.847678902831979
71.85830871526545,-3.8487244831496894
72.1012095894299,-3.849765720223416
72.34493153544712,-3.8508156686032775
72.589477328766,-3.851936116582887
72.83484975421742,-3.8530524402976085
73.08105160604555,-3.854164614973451
73.32808568794003,-3.855272616004633
73.57595481306774,-3.8563210257924334
73.82466180410471,-3.8573567167475216
74.07420949326853,-3.858387945493756
74.32460072235035,-3.859414687562434
74.57583834274745,-3.860467645171641
74.82792521549557,-3.861537513721794
75.0808642113016,-3.862602999820695
75.33465821057614,-3.8636640804921942
75.58931010346632,-3.864664946437933
75.8448227898889,-3.865537545764669
76.10119917956307,-3.866405065076642
76.35844219204375,-3.867267480346792
76.61655475675464,-3.8681223675660648
76.87553981302183,-3.8688995436571094
77.13540031010699,-3.869671291820264
77.39613920724122,-3.870437588198988
77.65775947365869,-3.87119840930956
77.9202640886302,-3.872067114202325
78.18365604149751,-3.8729679654917772
78.44793833170704,-3.8738637833130523
78.71311396884423,-3.874754547057056
78.97918597266774,-3.8755323657267082
79.24615737314387,-3.8761846376243416
79.514031210481,-3.876831023747798
79.78281053516419,-3.877471502198055
80.05249840799011,-3.878106051396489
80.32309790010171,-3.878734650116594
80.5946120930233,-3.8793572775014673
80.86704407869543,-3.879973913047328
81.14039695951045,-3.8805845365899145
81.41467384834752,-3.881220300907372
81.68987786860825,-3.8818530136282643
81.96601215425225,-3.8824797716480064
82.24307984983264,-3.883100556725249
82.52108411053214,-3.8835976724991697
82.80002810219875,-3.8840209030841777
83.07991500138196,-3.884437481193008
83.36074799536888,-3.884847388120829
83.64253028222056,-3.885225300841527
83.92526507080828,-3.885550711656171
84.2089555808502,-3.885869157377899
84.49360504294809,-3.8861806201961
84.77921669862401,-3.886484177670621
85.0657938003573,-3.886769922796272
85.35333961162144,-3.887048594790211
85.64185740692153,-3.8873201775611217
85.93135047183122,-3.887584655481311
86.22182210303045,-3.887879109686951
86.51327560834281,-3.888175944759505
86.80571430677314,-3.888465788570637
87.0991415285456,-3.8887486280431878
87.39356061514125,-3.888944771099735
87.68897491933643,-3.8890596597868363
87.9853878052407,-3.8891669877151873
88.28280264833532,-3.889266742136766
88.5812228355115,-3.889325064110708
88.88065176510904,-3.8892682075873672
89.18109284695522,-3.889203264600784
89.48254950240342,-3.889130223012229
89.78502516437212,-3.889049071271172
90.08852327738394,-3.8889598086695694
90.39304729760508,-3.8888624149778503
90.69860069288438,-3.88875687998298
91.00518694279307,-3.888643194467573
91.31280953866433,-3.8885711769552413
91.62147198363282,-3.888514500487079
91.93117779267496,-3.8884498974337602
92.24193049264862,-3.888377361936218
92.5537336223335,-3.888207845332277
92.86659073247132,-3.887897485995324
93.18050538580634,-3.887578430335841
93.49548115712578,-3.887250672583422
93.81152163330064,-3.8869321641391847
94.1286304133266,-3.8867333420486094
94.44681110836493,-3.886526299371603
94.76606734178355,-3.8863110347919183
95.08640274919844,-3.8860875476404093
95.4078209785149,-3.885826422330938
95.73032568996916,-3.8855515172970083
96.05392055617008,-3.8852682739461732
96.37860926214104,-3.884976694187351
96.7043955053616,-3.8846470252273853
97.03128299581002,-3.884285928602741
97.35927545600514,-3.8839163272009607
97.68837662104907,-3.8835382253972184
98.0185902386696,-3.8831626665484293
98.34992006926282,-3.882806360713304
98.68236988593596,-3.8824417035032086
99.0159434745504,-3.882068702980173
99.35064463376482,-3.8816869392592763
99.6864771750784,-3.881225991079296
100.02344492287436,-3.88075648769423
100.36155171446302,-3.880278439692378
100.70080140012624,-3.87979185850548
101.04119784316076,-3.8793042139744323
101.3827449199223,-3.878810894961623
101.72544651986978,-3.8783091171223214
102.06930654560952,-3.877798895549185
102.41432891293988,-3.87720841675986
102.76051755089532,-3.8765204777672433
103.10787640179188,-3.8758236019851577
103.45640942127156,-3.8751178063432214
103.80612057834772,-3.87441264643176
104.15701385544963,-3.873745831501119
104.50909324846872,-3.8730703450410293
104.86236276680344,-3.872386208489286
105.21682643340507,-3.8716934441459325
105.57248828482372,-3.8710247240917077
105.92935237125404,-3.870351612567917
106.2874227565816,-3.8696700707852045
106.64670351842864,-3.8689801255013023
107.00719874820128,-3.8681757172274702
107.36891255113574,-3.8672946340753374
107.73184904634464,-3.866404644274843
108.09601236686476,-3.8655057767403886
108.46140665970351,-3.864581569650961
108.82803608588635,-3.8636150521126083
109.1959048205042,-3.862639581011651
109.56501705276088,-3.861655188972599
109.93537698602094,-3.860665214442797
110.30698883785723,-3.8597274313277863
110.67985684009945,-3.8587810491386607
111.05398523888188,-3.857826105611667
111.42937829469211,-3.856862639609116
111.806040282419,-3.855756092354881
112.18397549140197,-3.8546008804038063
112.56318822547952,-3.8534366784411453
112.94368280303836,-3.8522635279158286
113.32546355706246,-3.8510412499926323
113.70853483518252,-3.8497685402858854
114.09290099972554,-3.8484867369036633
114.478566427764,-3.847195885062487
114.86553551116646,-3.8458960319988793
115.25381265664711,-3.844587227547235
115.64340228581617,-3.843269517490543
116.0343088352297,-3.841942951865895
116.42653675644095,-3.84060758194992
116.82009051605056,-3.8392512436240414
117.21497459575744,-3.8378853089216625
117.61119349240988,-3.8365106868135337
118.00875171805684,-3.83512743344706
118.40765379999924,-3.833643689434243
118.80790428084131,-3.8321026929147783
119.20950771854278,-3.830552765697
